Time (s),Acceleration x (m/s^2),Acceleration y (m/s^2),Acceleration z (m/s^2),Absolute acceleration (m/s^2),Activity_Walking,Activity_Jumping
99.651,1.2827827713861875,-1.2176227235810477,-1.0073501431364595,11.4,0.0,1.0
99.661,1.2404496458670886,-1.1958112447846503,-1.0033378562356603,10.706,0.0,1.0
99.671,1.1892207525448975,-1.1677270140892249,-0.9992971809085629,9.873,0.0,1.0
99.681,1.136150172304387,-1.1356768564024247,-0.9952403177116685,9.099,0.0,1.0
99.691,1.0863355808198967,-1.1016853638277457,-0.9911544598686807,8.485,0.0,1.0
99.701,1.0383189922256038,-1.0672624053234285,-0.9869809683839149,7.92,0.0,1.0
99.711,0.9942845499933088,-1.0349614971756729,-0.9826937471595485,7.488,0.0,1.0
99.721,0.9549000606869501,-1.0053035768425291,-0.9783235771319968,7.162,0.0,1.0
99.731,0.9183497201772128,-0.9744146415204628,-0.9738139023116713,6.832,0.0,1.0
99.741,0.8843748356800059,-0.9424047059160325,-0.9690694238279671,6.539,0.0,1.0
99.751,0.8536301021883386,-0.9095666675275644,-0.9640578259621911,6.317,0.0,1.0
99.761,0.826125385494432,-0.8777671399712548,-0.9587701089127472,6.148,0.0,1.0
99.771,0.8033846033754223,-0.847268192953789,-0.9532350040738605,6.091,0.0,1.0
99.781,0.7865758725642925,-0.8207268221680298,-0.947543878419631,6.156,0.0,1.0
99.791,0.7787877126920855,-0.8019384035965793,-0.9418041722482453,6.455,0.0,1.0
99.801,0.78382681333924,-0.7930444172034775,-0.936128528134346,7.043,0.0,1.0
99.811,0.8015779361944485,-0.7941878742948247,-0.9306556847361094,7.753,0.0,1.0
99.821,0.8273257901541415,-0.8027955910530046,-0.9255267195847842,8.342,0.0,1.0
99.831,0.8573886471092536,-0.8154711968422685,-0.9208535926445653,8.808,0.0,1.0
99.841,0.8899725610246414,-0.8287835384862935,-0.9166375318196899,9.206,0.0,1.0
99.851,0.9257149071828148,-0.8388490494556856,-0.9127499412796845,9.63,0.0,1.0
99.861,0.966631236762525,-0.8506867083933075,-0.908977320598283,10.189,0.0,1.0
99.871,1.0151143400527767,-0.8750635664659641,-0.9051344140714915,10.968,0.0,1.0
99.881,1.0679116567012927,-0.9180680105726033,-0.9011239027843323,11.702,0.0,1.0
99.891,1.1190838316234109,-0.9738928005933054,-0.8969353587980069,12.164,0.0,1.0
99.901,1.162009107398625,-1.0366892356481223,-0.8926554708451162,12.279,0.0,1.0
99.911,1.1916222687870537,-1.0987425576886332,-0.888409422336376,12.05,0.0,1.0
99.921,1.208017594697371,-1.1543733607766322,-0.8843176034814957,11.688,0.0,1.0
99.931,1.2122065225708683,-1.2045487785181628,-0.8804687676016152,11.269,0.0,1.0
99.941,1.2052404234606502,-1.2503362995707967,-0.876897364813685,10.809,0.0,1.0
99.951,1.1879814078409043,-1.2889435886762917,-0.8736057488168343,10.279,0.0,1.0
99.961,1.1644124063016836,-1.323961534564451,-0.8706131159600017,9.913,0.0,1.0
99.971,1.1403301391524807,-1.3570133299466494,-0.8679333326703109,9.795,0.0,1.0
99.981,1.1200233308388645,-1.3899000386991445,-0.8655708490064812,9.873,0.0,1.0
99.991,1.1019390842995387,-1.4184160367117482,-0.8635068323899201,9.84,0.0,1.0
100.001,1.088050137328889,-1.4436537068197248,-0.8617693121060286,9.939,0.0,1.0
100.011,1.0789602449892979,-1.4696148029774023,-0.8603997077646626,10.138,0.0,1.0
100.021,1.0756709179230048,-1.4952519968973295,-0.8594105243612145,10.387,0.0,1.0
100.031,1.0778131712485126,-1.5179254929420134,-0.8587926522813863,10.623,0.0,1.0
100.041,1.0813030429556303,-1.5347108842571533,-0.8585416677625225,10.689,0.0,1.0
100.051,1.0832361822044312,-1.5442340863951334,-0.8586353717224186,10.615,0.0,1.0
100.061,1.082609151170101,-1.546052813480949,-0.8590267299440788,10.469,0.0,1.0
100.071,1.077856881577397,-1.5376148290532454,-0.85962944301274,10.178,0.0,1.0
100.081,1.066918428232657,-1.5173913570002209,-0.860352387544853,9.716,0.0,1.0
100.091,1.0500862479843787,-1.4882629762962643,-0.8611120007845087,9.234,0.0,1.0
100.101,1.028433352939487,-1.452591174224965,-0.8618285369607955,8.756,0.0,1.0
100.111,1.0037147398916166,-1.409823389629345,-0.8624245120552787,8.301,0.0,1.0
100.121,0.979108447550994,-1.358338580448301,-0.862829220227402,7.941,0.0,1.0
100.131,0.9562841628878189,-1.2971428362021227,-0.8629900285115566,7.66,0.0,1.0
100.141,0.9367357934879725,-1.2279495906839533,-0.8628625273490941,7.497,0.0,1.0
100.151,0.9220890540568359,-1.1527690713155274,-0.8623992461972374,7.481,0.0,1.0
100.161,0.9109896244864677,-1.0740343638138092,-0.8615604842653549,7.478,0.0,1.0
100.171,0.9029237406755042,-0.9966269892235825,-0.860319625437308,7.53,0.0,1.0
100.181,0.8977171644823675,-0.92303312689019,-0.8586783507142665,7.629,0.0,1.0
100.191,0.8975079404631886,-0.8559627025753724,-0.8566776228307579,7.895,0.0,1.0
100.201,0.9015649053542455,-0.7960991215808894,-0.8543645685778739,8.175,0.0,1.0
100.211,0.9065496937218467,-0.7395047003397507,-0.8517711385351455,8.306,0.0,1.0
100.221,0.912754066260751,-0.682108031759241,-0.8489358298773175,8.478,0.0,1.0
100.231,0.9230492234687109,-0.6254360661832546,-0.8458596041586295,8.787,0.0,1.0
100.241,0.9397069438206099,-0.5732590323020171,-0.8425043908263325,9.205,0.0,1.0
100.251,0.963552703929583,-0.529847183043707,-0.838870560748276,9.72,0.0,1.0
100.261,0.994613635275766,-0.4982333733730507,-0.8349768999589025,10.286,0.0,1.0
100.271,1.0326505069817202,-0.47349330769604103,-0.830861735583337,10.892,0.0,1.0
100.281,1.0742373124317943,-0.45199561313550296,-0.8265796803071366,11.391,0.0,1.0
100.291,1.1160872898357481,-0.4320603538935883,-0.8221590071304627,11.721,0.0,1.0
100.301,1.1624703526897315,-0.4096168394293275,-0.8176451351025538,12.277,0.0,1.0
100.311,1.2129313555753158,-0.3867889589465157,-0.8130591714216472,12.822,0.0,1.0
100.321,1.2661278841156904,-0.36491311595988296,-0.8084414165049599,13.347,0.0,1.0
100.331,1.3223428516999782,-0.34567936894660684,-0.8038559378825313,13.929,0.0,1.0
100.341,1.381385800404363,-0.3312062574423636,-0.7993484434662279,14.522,0.0,1.0
100.351,1.4420643547149359,-0.32418965376740133,-0.7949001048496577,15.039,0.0,1.0
100.361,1.5046952654425871,-0.32359629674869633,-0.790550005923138,15.633,0.0,1.0
100.371,1.5620533342182445,-0.32334769371607486,-0.7863436817168974,15.874,0.0,1.0
100.381,1.6080533790941394,-0.3231363816240304,-0.7823036348067968,15.726,0.0,1.0
100.391,1.63821624596302,-0.3267077457211964,-0.7784927384381837,15.27,0.0,1.0
100.401,1.6511703454197892,-0.3361371095308021,-0.7749854976977394,14.596,0.0,1.0
100.411,1.6512394778384543,-0.3510572590950028,-0.7718507506240778,13.976,0.0,1.0
100.421,1.6439911959525009,-0.3723921806386736,-0.7691764975065859,13.539,0.0,1.0
100.431,1.6350197622681382,-0.40241912504084365,-0.767050176262417,13.354,0.0,1.0
100.441,1.6284245299699296,-0.4371489281210325,-0.7654816245440548,13.372,0.0,1.0
100.451,1.6227249067038807,-0.4711874494078406,-0.7643978696764727,13.336,0.0,1.0
100.461,1.615294664275761,-0.5023366543266856,-0.7637005922651169,13.17,0.0,1.0
100.471,1.6085480340650602,-0.5335021708428582,-0.7633473744311257,13.128,0.0,1.0
100.481,1.604555846633096,-0.5662160387716496,-0.7633449347054231,13.205,0.0,1.0
100.491,1.60198687136463,-0.6005870022933817,-0.7637440258065652,13.238,0.0,1.0
100.501,1.5966181284332575,-0.6353008826990639,-0.7646075541474784,13.066,0.0,1.0
100.511,1.585047446836851,-0.6672372736574824,-0.7659961191128791,12.692,0.0,1.0
100.521,1.5650012693116881,-0.6949799435547298,-0.7679236412406868,12.148,0.0,1.0
100.531,1.5357836462270185,-0.7174955940550475,-0.7703802421555929,11.501,0.0,1.0
100.541,1.4979084419826216,-0.7345452900894553,-0.773336138454019,10.806,0.0,1.0
100.551,1.4514751936288033,-0.7443062033532983,-0.7767728191577673,10.04,0.0,1.0
100.561,1.39868567076122,-0.749278263040425,-0.780677466332397,9.329,0.0,1.0
100.571,1.3411303375996972,-0.745064851152058,-0.7850524704850067,8.635,0.0,1.0
100.581,1.281884796448439,-0.7347913962753624,-0.7898943548302891,8.073,0.0,1.0
100.591,1.226392438236199,-0.7309607839133713,-0.795196923681201,7.834,0.0,1.0
100.601,1.1735282062219663,-0.7288556265185446,-0.8009506981561054,7.557,0.0,1.0
100.611,1.1234974316128257,-0.7291122212741571,-0.807123318026966,7.322,0.0,1.0
100.621,1.0766057976692125,-0.7334649081554856,-0.8136850088072605,7.14,0.0,1.0
100.631,1.0318390902847794,-0.7368236954646307,-0.8205731973088551,6.896,0.0,1.0
100.641,0.9946679801395656,-0.7454329786370336,-0.8276974314488983,6.985,0.0,1.0
100.651,0.9652833799993066,-0.7621282696846636,-0.8349519871872281,7.165,0.0,1.0
100.661,0.9398380716397446,-0.7855261689960531,-0.8422401942028545,7.222,0.0,1.0
100.671,0.9186966947762896,-0.8191821117204031,-0.8494918722936897,7.376,0.0,1.0
100.681,0.906778237750118,-0.8682920695342807,-0.8566684310440706,7.876,0.0,1.0
100.691,0.906071733993682,-0.9348430191082852,-0.8637244309467339,8.573,0.0,1.0
100.701,0.9211719346737467,-1.016645056901829,-0.8706468477687807,9.583,0.0,1.0
100.711,0.9540920469517933,-1.1076595594746854,-0.8774061404949393,10.761,0.0,1.0
100.721,0.9995922583070966,-1.2047144261346625,-0.8839652096931697,11.795,0.0,1.0
100.731,1.0480101332501208,-1.3070741004473458,-0.8903456637969362,12.48,0.0,1.0
100.741,1.0899897086116654,-1.4108738939902499,-0.8965940616609455,12.729,0.0,1.0
100.751,1.1163793148020955,-1.510953341642127,-0.9027493302256953,12.469,0.0,1.0
100.761,1.12430885240053,-1.5998997053675612,-0.9088241427195459,11.892,0.0,1.0
100.771,1.1215685671745108,-1.6780189623986845,-0.914810152885481,11.527,0.0,1.0
100.781,1.1185648304378253,-1.758145434204829,-0.920660409191715,11.682,0.0,1.0
100.791,1.1202272436047762,-1.8502931785085388,-0.9263495847433313,12.194,0.0,1.0
100.801,1.126848889672558,-1.9517638889648516,-0.9319067022909518,12.768,0.0,1.0
100.811,1.1330206314490123,-2.051270226185448,-0.9373969364698611,13.044,0.0,1.0
100.821,1.136786471680727,-2.1356801144903805,-0.9428555950920325,13.037,0.0,1.0
100.831,1.138226256313657,-2.1957067695643717,-0.9482514457874865,12.808,0.0,1.0
100.841,1.1395999608720169,-2.2304468501301753,-0.9535151674474985,12.563,0.0,1.0
100.851,1.1433719071756199,-2.243011349686798,-0.9585661262902159,12.384,0.0,1.0
100.861,1.149838117305302,-2.2312280391189203,-0.9633386999825141,12.15,0.0,1.0
100.871,1.1588567550226674,-2.1975982272586982,-0.9677988203806819,11.954,0.0,1.0
100.881,1.1707569223908199,-2.149235098360358,-0.9719097525453958,11.877,0.0,1.0
100.891,1.1859120359269175,-2.0932930971970234,-0.9756603624057255,11.931,0.0,1.0
100.901,1.2014356517577993,-2.04113894538391,-0.9790479908912897,12.014,0.0,1.0
100.911,1.2137126635261295,-1.9941225700339995,-0.9820810711907307,11.967,0.0,1.0
100.921,1.2214126744314229,-1.9444828793151834,-0.9847777889552417,11.768,0.0,1.0
100.931,1.221250212633561,-1.8873279269694907,-0.9871957274976174,11.337,0.0,1.0
100.941,1.2111258573192965,-1.8176470677826841,-0.9893857768879522,10.688,0.0,1.0
100.951,1.19120363987776,-1.7313091269589167,-0.9913597615749812,9.905,0.0,1.0
100.961,1.162578520576448,-1.6277863240622663,-0.9930473698300262,9.059,0.0,1.0
100.971,1.1271929570873125,-1.5100400093097421,-0.9943651815900246,8.26,0.0,1.0
100.981,1.0872039091533954,-1.3821644385440037,-0.9952659448950703,7.564,0.0,1.0
100.991,1.043845242069709,-1.2495578337482245,-0.9957289381219988,6.941,0.0,1.0
101.001,0.9998894489839124,-1.1192382826630811,-0.9957122447126642,6.485,0.0,1.0
101.011,0.958311435509727,-0.9973416580465454,-0.9951915770759147,6.219,0.0,1.0
101.021,0.9219583826141318,-0.8873784699487562,-0.9942302177354959,6.164,0.0,1.0
101.031,0.8918826695728417,-0.7939950091608607,-0.9929444970157759,6.237,0.0,1.0
101.041,0.8691661782970582,-0.723143976462474,-0.9914371842010027,6.437,0.0,1.0
101.051,0.8551781712757239,-0.6720422512662791,-0.9897629049024725,6.757,0.0,1.0
101.061,0.8495836454097387,-0.6346158456728376,-0.9879415194146848,7.108,0.0,1.0
101.071,0.8521727918756955,-0.6064264872303248,-0.9859808358013431,7.488,0.0,1.0
101.081,0.8616056441074095,-0.5843836370723461,-0.9838978602727312,7.855,0.0,1.0
101.091,0.8774551967256766,-0.569781795287331,-0.9817200098027575,8.265,0.0,1.0
101.101,0.8982530739499324,-0.558180096122133,-0.9795023449724081,8.65,0.0,1.0
101.111,0.9232570270891943,-0.5488301463698678,-0.9773052770554477,9.036,0.0,1.0
101.121,0.9519298245195719,-0.5394334545562463,-0.9751914971178475,9.422,0.0,1.0
101.131,0.9825407745783699,-0.5258624511417321,-0.9731916095991361,9.732,0.0,1.0
101.141,1.0156235362893475,-0.5082317883285206,-0.9713209348743993,10.09,0.0,1.0
101.151,1.0509572255261304,-0.4897078877163677,-0.9695882827115301,10.469,0.0,1.0
101.161,1.0861619843174808,-0.473919947651319,-0.9680277128883338,10.762,0.0,1.0
101.171,1.1205451860283082,-0.46463477944478093,-0.9666856745044226,11.049,0.0,1.0
101.181,1.1569655133123062,-0.46684440359434515,-0.9655883635569189,11.497,0.0,1.0
101.191,1.1996889697879347,-0.4836837993573147,-0.9647317992106607,12.202,0.0,1.0
101.201,1.2537843268873774,-0.5167094609367714,-0.9640711203312207,13.214,0.0,1.0
101.211,1.3185013331038102,-0.5633229502808536,-0.9634988498851843,14.235,0.0,1.0
101.221,1.3847710959495292,-0.6213582195903326,-0.9628672490201667,14.854,0.0,1.0
101.231,1.4442292984661564,-0.687524893711617,-0.9620841160767007,15.064,0.0,1.0
101.241,1.4902159341034664,-0.7588556555848454,-0.9611018636702643,14.876,0.0,1.0
101.251,1.523402749300291,-0.8367497438336133,-0.9598703212526377,14.641,0.0,1.0
101.261,1.54968173909131,-0.9200947858670925,-0.9583591574682442,14.626,0.0,1.0
101.271,1.5732929251960222,-1.004109055948281,-0.9565630053347346,14.766,0.0,1.0
101.281,1.5943179669717864,-1.079101647283031,-0.9544957733327261,14.839,0.0,1.0
101.291,1.6102969212602942,-1.1416092381174114,-0.9522447855451003,14.754,0.0,1.0
101.301,1.6183893982697093,-1.1913733512849412,-0.9498930165865456,14.48,0.0,1.0
101.311,1.6173052238378884,-1.2274922884768118,-0.9475634897449786,14.079,0.0,1.0
101.321,1.6042615141856367,-1.2452781480060784,-0.9453854020359491,13.459,0.0,1.0
101.331,1.5771176495328223,-1.2453070397357604,-0.9434598217784351,12.665,0.0,1.0
101.341,1.5360401140506172,-1.2318622415393847,-0.9418768695944983,11.821,0.0,1.0
101.351,1.4857981995969485,-1.2070500559955275,-0.9407043988686515,11.083,0.0,1.0
101.361,1.4309704109261459,-1.1752183129858382,-0.939871116110805,10.459,0.0,1.0
101.371,1.3732751065682842,-1.1404036642683644,-0.939242864234301,9.834,0.0,1.0
101.381,1.3152221046241137,-1.1087652347066288,-0.9387007490797924,9.283,0.0,1.0
101.391,1.258251520230042,-1.0824266886619613,-0.9381349614675956,8.822,0.0,1.0
101.401,1.202107310990143,-1.0637898844691254,-0.9375153518589254,8.409,0.0,1.0
101.411,1.14715265540102,-1.0545980298988533,-0.9368707322655231,8.052,0.0,1.0
101.421,1.0937899349481948,-1.0534343825077586,-0.9362353141687437,7.722,0.0,1.0
101.431,1.042005190793405,-1.0607570684673726,-0.9356119298950238,7.41,0.0,1.0
101.441,0.991524254586581,-1.0734602823473554,-0.9350081715999017,7.099,0.0,1.0
101.451,0.9423576506150286,-1.0893303349802286,-0.9344437783531324,6.82,0.0,1.0
101.461,0.8952075547721877,-1.1053773524080297,-0.9339520545253477,6.581,0.0,1.0
101.471,0.8487597493939287,-1.1208927971942235,-0.9335736224419945,6.308,0.0,1.0
101.481,0.802047037087197,-1.1371925170351505,-0.9333757393600034,6.043,0.0,1.0
101.491,0.7572450524969998,-1.1568868415417835,-0.9334301558548294,5.912,0.0,1.0
101.501,0.7184701353461029,-1.1788698363866328,-0.9337518458977616,5.916,0.0,1.0
101.511,0.6893523260676306,-1.2065917855089245,-0.9343324746097467,6.158,0.0,1.0
101.521,0.670635164944501,-1.2439657947881124,-0.9351873162677553,6.582,0.0,1.0
101.531,0.659203470680815,-1.2890325606626905,-0.9363011623202208,6.946,0.0,1.0
101.541,0.6535897041940177,-1.3408086678226738,-0.9376863608038898,7.328,0.0,1.0
101.551,0.6563311197056815,-1.3986287114338996,-0.9393550277618938,7.875,0.0,1.0
101.561,0.6748491860077557,-1.466828920042893,-0.9413378765007839,8.872,0.0,1.0
101.571,0.7137846517847086,-1.5474327306657918,-0.9436483756783404,10.215,0.0,1.0
101.581,0.7684823511373469,-1.631759675827552,-0.9462957053570209,11.4,0.0,1.0
101.591,0.8343296347074897,-1.716992184471302,-0.9493071111326679,12.476,0.0,1.0
101.601,0.9070685033924095,-1.8066601329302083,-0.9526756158204805,13.488,0.0,1.0
101.611,0.984897045364932,-1.898521097073251,-0.9563486267107716,14.414,0.0,1.0
101.621,1.0599134116601137,-1.9806948728986118,-0.9602224642872904,14.842,0.0,1.0
101.631,1.1227779972822867,-2.0348993743971957,-0.9641701158757184,14.56,0.0,1.0
101.641,1.1726343280988911,-2.058595314634723,-0.9681140806865309,14.109,0.0,1.0
101.651,1.2132322937882245,-2.060195186835141,-0.9720247757951033,13.811,0.0,1.0
101.661,1.2487335701162985,-2.0460397438870173,-0.9758449755199633,13.672,0.0,1.0
101.671,1.2815326883706268,-2.0200693912213796,-0.9795208533537916,13.635,0.0,1.0
101.681,1.3151638763601485,-1.993987884241474,-0.9830844269363774,13.905,0.0,1.0
101.691,1.350532801022089,-1.9785532813918507,-0.9866795665180588,14.389,0.0,1.0
101.701,1.3870415547073112,-1.9756211351842767,-0.9904684190242646,14.935,0.0,1.0
101.711,1.4240507642452753,-1.9739813018044587,-0.994561265739378,15.36,0.0,1.0
101.721,1.458431400970921,-1.9594164590788383,-0.9989355145409866,15.409,0.0,1.0
101.731,1.4841325830835228,-1.9280257957674405,-1.003253752508654,14.861,0.0,1.0
101.741,1.4952428869925072,-1.8729557850953145,-1.0071967744220887,13.917,0.0,1.0
101.751,1.4872622093209789,-1.778747782171949,-1.010848082249279,12.775,0.0,1.0
101.761,1.46251085467824,-1.6479903958830444,-1.01451099104891,11.871,0.0,1.0
101.771,1.426577120849803,-1.507648804328249,-1.0183856390773653,11.291,0.0,1.0
101.781,1.3836302464202153,-1.3748038462504186,-1.0224720216034837,10.696,0.0,1.0
101.791,1.3359213034512911,-1.2553640765251217,-1.0265475174912597,9.889,0.0,1.0
101.801,1.2840334505551572,-1.1483417059754222,-1.0303234177646712,9.02,0.0,1.0
101.811,1.2306732149685857,-1.0534086083388956,-1.033562420853579,8.339,0.0,1.0
101.821,1.1803332513066154,-0.9699875044786648,-1.0361188797549692,7.935,0.0,1.0
101.831,1.1352584959667489,-0.8962663462386234,-1.037955837873908,7.706,0.0,1.0
101.841,1.098125318946822,-0.8298950263342925,-1.0391011818600984,7.681,0.0,1.0
101.851,1.0690540001865767,-0.7687907044842024,-1.0396424517144913,7.748,0.0,1.0
101.861,1.0460670868871027,-0.7127174500630201,-1.0397143283204298,7.795,0.0,1.0
101.871,1.0298632101599279,-0.662071465666846,-1.0394542974376784,7.953,0.0,1.0
101.881,1.019368706661161,-0.6156124153436191,-1.03900287705572,8.129,0.0,1.0
101.891,1.0140831535074974,-0.5726270098927352,-1.0384739987451688,8.34,0.0,1.0
101.901,1.013543719342764,-0.5351516752732022,-1.0379434415863973,8.587,0.0,1.0
101.911,1.016457671785482,-0.503596012660416,-1.0374454818564556,8.814,0.0,1.0
101.921,1.0222320590338063,-0.47651795217056175,-1.0370160592808004,9.047,0.0,1.0
101.931,1.0304190799142143,-0.45443934074046743,-1.036653318388148,9.265,0.0,1.0
101.941,1.0417247886847611,-0.43597089283870416,-1.0363320269342247,9.503,0.0,1.0
101.951,1.0542387138054203,-0.4206563330256843,-1.0360223124095391,9.629,0.0,1.0
101.961,1.0680419261612213,-0.4061470981155329,-1.0357911352590983,9.798,0.0,1.0
101.971,1.0855828019950402,-0.3973520856628761,-1.0357534154470374,10.136,0.0,1.0
101.981,1.1134203538042957,-0.4044965439551466,-1.035844489710886,10.749,0.0,1.0
101.991,1.1558369614767428,-0.4303044977603238,-1.0359980527942723,11.7,0.0,1.0
102.001,1.208135148973528,-0.4596153047504853,-1.0362092679675743,12.542,0.0,1.0
102.011,1.261450713964333,-0.48994280788565797,-1.0364672191206503,13.002,0.0,1.0
102.021,1.3105723426009428,-0.5207508818406112,-1.0366984671687958,13.197,0.0,1.0
102.031,1.3543679457843878,-0.5503903328336316,-1.0367696236089643,13.297,0.0,1.0
102.041,1.3922874387395463,-0.5788233315848539,-1.036533607806129,13.329,0.0,1.0
102.051,1.424444063940703,-0.6075095822754775,-1.0359052584331592,13.331,0.0,1.0
102.061,1.4524142177528712,-0.637647208914691,-1.034866627481702,13.381,0.0,1.0
102.071,1.4773879494648554,-0.6685070105722338,-1.0334653233662245,13.462,0.0,1.0
102.081,1.498615621420042,-0.6973805637606665,-1.031778754070254,13.472,0.0,1.0
102.091,1.5156474011371281,-0.7247789284745103,-1.0299025282786756,13.43,0.0,1.0
